"Time (s)","Linear Acceleration x (m/s^2)","Linear Acceleration y (m/s^2)","Linear Acceleration z (m/s^2)","Absolute acceleration (m/s^2)"
5.389200200E-2,0.000000000E0,0.000000000E0,0.000000000E0,0.000000000E0
5.880471000E-2,-2.236366272E-2,-7.584571838E-3,-1.319372654E-2,2.705057412E-2
6.371747000E-2,-6.558835506E-2,7.724761963E-4,1.860278845E-2,6.817985610E-2
6.863023100E-2,-1.157553196E-1,2.151012421E-2,7.963907719E-2,1.421420489E-1
7.354299100E-2,-1.741648614E-1,2.616596222E-2,1.540962458E-1,2.340164727E-1
7.845570000E-2,-2.293689549E-1,8.505916595E-2,2.141503692E-1,3.251239145E-1
8.336846000E-2,-3.381808102E-1,1.380414963E-1,2.531216145E-1,4.444010202E-1
8.828122000E-2,-4.823281765E-1,1.873645782E-1,2.507915497E-1,5.750150923E-1
9.319392900E-2,-6.333546638E-1,2.811059952E-1,2.487911582E-1,7.362443556E-1
9.810668900E-2,-7.219113111E-1,3.346347809E-1,2.655288577E-1,8.388336856E-1
1.030194500E-1,-7.996757627E-1,3.824291229E-1,2.837983966E-1,9.307388943E-1
1.079322100E-1,-8.588390350E-1,4.426765442E-1,3.428743482E-1,1.025246229E0
1.128449180E-1,-8.963978887E-1,4.903841019E-1,4.003385901E-1,1.097395430E0
1.177576790E-1,-9.048089981E-1,4.553461075E-1,4.768217206E-1,1.119543815E0
1.226704390E-1,-9.101350307E-1,4.070510864E-1,4.956302643E-1,1.113411748E0
1.275832000E-1,-8.668951988E-1,3.500385284E-1,4.647340775E-1,1.044036407E0
1.324959080E-1,-7.745023370E-1,2.728624344E-1,4.451009035E-1,9.340356484E-1
1.374086680E-1,-6.659794450E-1,1.940641403E-1,4.376192093E-1,8.201829577E-1
1.423214290E-1,-5.316106081E-1,1.041126251E-1,3.957058191E-1,6.708445220E-1
1.472341370E-1,-4.122289419E-1,5.309581757E-2,3.749055862E-1,5.597374965E-1
1.521468980E-1,-2.921455801E-1,4.349327087E-2,3.942096233E-1,4.925869788E-1
1.570602080E-1,-2.250264585E-1,1.628112793E-2,4.516193867E-1,5.048386401E-1
1.619729680E-1,-2.055863440E-1,3.624820709E-2,4.127881527E-1,4.625729525E-1
1.668856770E-1,-1.809084415E-1,5.102634430E-2,3.872385025E-1,4.304476854E-1
1.717984370E-1,-1.878002882E-1,7.004547119E-2,3.331345320E-1,3.887852012E-1
1.767111980E-1,-2.296912670E-1,1.000671387E-1,3.207782507E-1,4.070260391E-1
1.816239060E-1,-3.148208261E-1,1.360902786E-1,3.328955173E-1,4.779666745E-1
1.865366660E-1,-4.887288213E-1,1.363334656E-1,3.853455782E-1,6.371294132E-1
1.914494270E-1,-7.197465301E-1,1.388702393E-1,4.128197432E-1,8.412729350E-1
1.963621870E-1,-9.262953401E-1,1.111278534E-1,3.910663128E-1,1.011585546E0
2.012748950E-1,-1.043487310E0,5.281448364E-3,3.934087753E-1,1.115196900E0
2.061876560E-1,-1.091509819E0,-1.556234360E-1,3.491191864E-1,1.156501857E0
2.111004160E-1,-1.080157042E0,-2.657642365E-1,2.774487734E-1,1.146450036E0
2.160131770E-1,-1.008731127E0,-3.337497711E-1,1.970711946E-1,1.080631506E0
2.209258850E-1,-9.110431075E-1,-4.003725052E-1,1.588432789E-1,1.007734526E0
2.258386450E-1,-7.519394755E-1,-4.749746323E-1,1.588294506E-1,9.034603868E-1
2.307514060E-1,-5.900611281E-1,-4.967784882E-1,1.282765865E-1,7.819308690E-1
2.356641660E-1,-4.357441068E-1,-5.253601074E-1,6.089580059E-2,6.852623349E-1
2.405768750E-1,-3.389893174E-1,-5.091543198E-1,6.477916241E-2,6.151001695E-1
2.454896350E-1,-2.320723534E-1,-4.888830185E-1,2.398383617E-2,5.417004775E-1
2.504023950E-1,-1.707088351E-1,-4.739189148E-1,-4.164171219E-2,5.054450281E-1
2.553151560E-1,-1.719074249E-1,-4.547367096E-1,-1.407005787E-1,5.060971158E-1
2.602278640E-1,-1.851020455E-1,-5.015602112E-1,-2.022718191E-1,5.716111454E-1
2.651406250E-1,-2.054103017E-1,-5.380687714E-1,-2.108161449E-1,6.133146352E-1
2.700533850E-1,-2.658537626E-1,-6.324262619E-1,-1.886354685E-1,7.114945817E-1
2.749660930E-1,-2.818466425E-1,-7.179069519E-1,-2.138431072E-1,8.003479218E-1
2.798788540E-1,-2.640661597E-1,-8.111848831E-1,-2.784810662E-1,8.973870712E-1
2.847916140E-1,-2.111892104E-1,-9.027872086E-1,-2.883411050E-1,9.709614922E-1
2.897043750E-1,-1.875240803E-1,-9.716978073E-1,-2.378226519E-1,1.017802301E0
2.946170830E-1,-1.362795830E-1,-9.972715378E-1,-2.012032866E-1,1.026452828E0
2.995298430E-1,-5.571818352E-2,-9.686269760E-1,-1.900319457E-1,9.886631757E-1
3.044426040E-1,4.685389996E-2,-9.290313721E-1,-1.896021366E-1,9.493384794E-1
3.093553640E-1,1.621500254E-1,-9.020738602E-1,-1.223718524E-1,9.246646690E-1
3.142680730E-1,2.833356261E-1,-8.898086548E-1,-9.523975849E-2,9.386741345E-1
3.191808330E-1,3.776081800E-1,-8.378705978E-1,-1.074945927E-1,9.252946362E-1
3.240935930E-1,4.712999463E-1,-7.281236649E-1,-1.160708666E-1,8.750772290E-1
3.290063020E-1,5.925785303E-1,-6.508960724E-1,-9.046643972E-2,8.848724136E-1
3.339190620E-1,6.867713928E-1,-5.867710114E-1,-9.941238165E-2,9.087562860E-1
3.388318230E-1,7.117977738E-1,-5.119848251E-1,-9.040886164E-2,8.814523778E-1
3.437445830E-1,7.250301242E-1,-4.337882996E-1,-5.876457691E-2,8.469322554E-1
3.486573430E-1,7.076134682E-1,-3.687105179E-1,9.477972984E-3,7.979687327E-1
3.535700520E-1,7.161227465E-1,-3.236389160E-1,1.046065092E-1,7.927902987E-1
3.584828120E-1,7.217383981E-1,-2.888441086E-1,2.147150040E-1,8.064984608E-1
3.633955730E-1,7.409099340E-1,-2.500276566E-1,3.397488594E-1,8.525788215E-1
3.683082810E-1,8.371219635E-1,-2.284536362E-1,4.371939898E-1,9.716495409E-1
3.732210410E-1,9.692506790E-1,-1.743478775E-1,5.100830793E-1,1.109066639E0
3.781338020E-1,1.101611853E0,-1.447601318E-1,6.012842655E-1,1.263347513E0
3.830465620E-1,1.276811481E0,-1.322212219E-1,6.751055717E-1,1.450343939E0
3.879592700E-1,1.480344772E0,-1.458988190E-1,7.530667782E-1,1.667278226E0
3.928720310E-1,1.648147225E0,-1.240501404E-1,7.452906370E-1,1.813073591E0
3.977847910E-1,1.804450631E0,-1.001853943E-1,7.589998245E-1,1.960142833E0
4.026975520E-1,1.987277389E0,-8.843898773E-2,7.557373047E-1,2.127964226E0
4.076102600E-1,2.127757072E0,-2.250003815E-2,7.520045042E-1,2.256848951E0
4.125230200E-1,2.243198872E0,4.027462006E-2,7.122291327E-1,2.353897525E0
4.174357810E-1,2.338747263E0,1.093931198E-1,6.747801304E-1,2.436602930E0
4.223485410E-1,2.364973068E0,9.970569611E-2,6.776278019E-1,2.462157241E0
4.272612500E-1,2.443120956E0,7.598972321E-2,6.850609779E-1,2.538488328E0
4.321740100E-1,2.499028444E0,4.072761536E-2,6.996313334E-1,2.595435591E0
4.370867700E-1,2.613070011E0,2.001094818E-2,7.214785814E-1,2.710916204E0
4.419995310E-1,2.774697542E0,-2.185344696E-2,7.647829056E-1,2.878248932E0
4.469122390E-1,3.009060621E0,-7.043075562E-2,7.748119831E-1,3.108012214E0
4.518250000E-1,3.246642828E0,-1.256399155E-1,7.731360197E-1,3.339792560E0
4.567377600E-1,3.440043449E0,-2.063093185E-1,7.265987396E-1,3.521989239E0
4.616505200E-1,3.641789436E0,-2.813653946E-1,6.567627192E-1,3.711217328E0
4.665632290E-1,3.913209200E0,-3.532056808E-1,5.233234167E-1,3.963814816E0
4.714759890E-1,4.265459061E0,-4.431085587E-1,3.124464750E-1,4.299780110E0
4.763887500E-1,4.681638241E0,-5.413570404E-1,3.188884258E-2,4.712941858E0
4.813015100E-1,5.131247997E0,-7.306299210E-1,-1.688238382E-1,5.185752364E0
4.862142180E-1,5.465515614E0,-9.388313293E-1,-1.799180508E-1,5.548480485E0
4.911269790E-1,5.795007706E0,-1.165677071E0,-1.108461618E-1,5.912123494E0
4.960397390E-1,6.195695400E0,-1.271194458E0,-1.533663273E-2,6.324777629E0
5.009525000E-1,6.584397316E0,-1.266105652E0,-4.571926594E-2,6.705177238E0
5.058652080E-1,6.957716942E0,-1.097110748E0,-1.485674381E-1,7.045250125E0
5.107779680E-1,7.336212158E0,-7.399682999E-1,-1.567350626E-1,7.375101884E0
5.156907290E-1,7.569027901E0,-2.039442062E-1,-5.875706673E-3,7.571777276E0
5.206034890E-1,7.555513382E0,3.548603058E-1,1.764844656E-1,7.565900810E0
5.255161980E-1,7.249715328E0,8.150653839E-1,3.048876524E-1,7.301757350E0
5.304289580E-1,6.835226059E0,1.111058235E0,4.722523689E-1,6.941022113E0
5.353417180E-1,6.529304981E0,1.220605850E0,6.088576317E-1,6.670263098E0
5.402544790E-1,6.265491009E0,1.072047234E0,5.995379686E-1,6.384755957E0
5.451671870E-1,6.047069550E0,8.694753647E-1,4.715884924E-1,6.127432844E0
5.500799480E-1,5.936944008E0,7.629785538E-1,2.890412807E-1,5.992744387E0
5.549927080E-1,5.943071842E0,7.092227936E-1,9.612226486E-2,5.986011976E0
5.599054680E-1,5.917167664E0,6.937608719E-1,-1.250494719E-1,5.959011216E0
5.648181770E-1,5.918837070E0,6.382331848E-1,-3.825212717E-1,5.965425080E0
5.697309370E-1,6.061992168E0,4.767999649E-1,-6.390144229E-1,6.114198777E0
5.746436980E-1,6.286562920E0,2.034482956E-1,-7.981200814E-1,6.340288654E0
5.795564580E-1,6.545109749E0,-3.607749939E-2,-9.253472686E-1,6.610297329E0
5.844691660E-1,6.781558990E0,-2.255783081E-1,-9.951019287E-1,6.857890037E0
5.893819270E-1,6.911874294E0,-3.514261246E-1,-9.722816944E-1,6.988765147E0
5.942946870E-1,6.930848122E0,-4.096059799E-1,-8.979589343E-1,7.000768743E0
5.992074480E-1,6.959039688E0,-3.463220596E-1,-8.389248252E-1,7.017974580E0
6.041201560E-1,6.966493607E0,-2.600946426E-1,-7.879894376E-1,7.015740143E0
6.090329160E-1,6.970792770E0,-3.007631302E-1,-6.858835220E-1,7.010909108E0
6.139456770E-1,6.944128513E0,-3.582010269E-1,-5.142000914E-1,6.972347562E0
6.188584370E-1,6.858508587E0,-3.706398010E-1,-2.855675220E-1,6.874449993E0
6.237711980E-1,6.711756706E0,-3.811759949E-1,-4.808139801E-2,6.722743863E0
6.286839060E-1,6.480123520E0,-3.755121231E-1,1.600335836E-1,6.492967036E0
6.335966660E-1,6.211228371E0,-3.085823059E-1,3.554451466E-1,6.229038623E0
6.385094270E-1,5.942915440E0,-2.188215256E-1,6.047718525E-1,5.977614556E0
6.434221350E-1,5.622573376E0,-2.156486511E-1,8.985987902E-1,5.698009783E0
6.483348950E-1,5.266635418E0,-2.413854599E-1,1.225571871E0,5.412738861E0
6.532476560E-1,4.912409782E0,-2.150230408E-1,1.503294349E0,5.141779719E0
6.581604160E-1,4.511245728E0,-1.107654572E-1,1.752049565E0,4.840793807E0
6.630731770E-1,4.138209343E0,-2.646255493E-2,2.034699440E0,4.611450818E0
6.679858850E-1,3.748938560E0,3.109073639E-2,2.375510693E0,4.438305760E0
6.728986450E-1,3.354439735E0,5.031585693E-2,2.686966419E0,4.298207320E0
6.778114060E-1,2.925592661E0,-6.403923035E-3,2.888896942E0,4.111551893E0
6.827241660E-1,2.557544470E0,-1.550769806E-1,2.975046396E0,3.926319351E0
6.876368750E-1,2.247706175E0,-3.331985474E-1,2.993259430E0,3.758032242E0
6.925496350E-1,2.005737543E0,-4.953918457E-1,2.976423264E0,3.623188046E0
6.974623950E-1,1.732213259E0,-6.061429977E-1,2.923591614E0,3.451863270E0
7.023751560E-1,1.483030319E0,-7.253103256E-1,2.895799637E0,3.333333097E0
7.072878640E-1,1.140100479E0,-8.529186249E-1,2.889657259E0,3.221400062E0
7.122006250E-1,7.334437370E-1,-1.036534309E0,2.861546040E0,3.130621157E0
7.171133850E-1,3.305451870E-1,-1.280546188E0,2.801447868E0,3.097929764E0
7.220261450E-1,-1.110637188E-1,-1.548912525E0,2.770843267E0,3.176324538E0
7.269389060E-1,-6.170492172E-1,-1.720251560E0,2.816439629E0,3.357431660E0
7.318516140E-1,-1.139655232E0,-1.747662067E0,2.863647938E0,3.543108277E0
7.367643750E-1,-1.662579536E0,-1.674844265E0,2.933609009E0,3.765014720E0
7.416771350E-1,-2.089486361E0,-1.597349167E0,3.076101303E0,4.047206053E0
7.465898950E-1,-2.522217989E0,-1.529253960E0,3.357706070E0,4.469271899E0
7.515026040E-1,-2.947599888E0,-1.363341808E0,3.580716610E0,4.834105649E0
7.564153640E-1,-3.228582382E0,-1.162046432E0,3.805842161E0,5.124307823E0
7.613281250E-1,-3.413761616E0,-9.780492783E-1,4.036497116E0,5.376212210E0
7.662408850E-1,-3.565217733E0,-8.400077820E-1,4.216700077E0,5.585423001E0
7.711535930E-1,-3.786688328E0,-7.241678238E-1,4.352173805E0,5.814193354E0
7.760663540E-1,-4.074048042E0,-5.973787308E-1,4.405203342E0,6.029970588E0
7.809791140E-1,-4.404103279E0,-4.528264999E-1,4.392647743E0,6.236708405E0
7.858918750E-1,-4.832562447E0,-3.550043106E-1,4.285894394E0,6.469047736E0
7.908046350E-1,-5.210520267E0,-2.513608932E-1,4.168162823E0,6.677296240E0
7.957173430E-1,-5.573859692E0,-1.846723557E-1,4.095987320E0,6.919474537E0
8.006301040E-1,-5.958717346E0,-8.553695679E-2,4.082741737E0,7.223739272E0
8.055428640E-1,-6.432348251E0,4.371547699E-2,4.094271183E0,7.624963711E0
8.104556250E-1,-6.923624039E0,2.102775574E-1,4.080064774E0,8.039136461E0
8.153683330E-1,-7.354727745E0,3.808126450E-1,4.061561108E0,8.410310167E0
8.202810930E-1,-7.784064293E0,5.459156036E-1,4.131925106E0,8.829636790E0
8.251938540E-1,-8.096188545E0,7.199974060E-1,4.246120453E0,9.170398253E0
8.301066140E-1,-8.337946892E0,8.864116669E-1,4.297465801E0,9.422064335E0
8.350193230E-1,-8.502784729E0,1.054649353E0,4.301151276E0,9.586946109E0
8.399320830E-1,-8.612212181E0,1.179330826E0,4.331665993E0,9.712072391E0
8.448448430E-1,-8.642211914E0,1.212959290E0,4.401118279E0,9.773890684E0
8.497576040E-1,-8.704462051E0,1.194028854E0,4.402257442E0,9.827168214E0
8.546703640E-1,-8.795736313E0,1.158448219E0,4.263998985E0,9.843204098E0
8.595830730E-1,-8.941586494E0,1.156292915E0,4.069971085E0,9.892100231E0
8.644958330E-1,-9.062972069E0,1.213583946E0,3.884343147E0,9.934705350E0
8.694085930E-1,-9.117339134E0,1.284813881E0,3.666388035E0,9.910550985E0
8.743213540E-1,-9.074599266E0,1.324794769E0,3.406609058E0,9.783067939E0
8.792341140E-1,-8.864455223E0,1.259970665E0,3.253049612E0,9.526196736E0
8.841468230E-1,-8.604779243E0,1.086263657E0,3.128792763E0,9.220170211E0
8.890595830E-1,-8.438453674E0,8.804368973E-1,3.040783644E0,9.012715169E0
8.939723430E-1,-8.309638023E0,7.640447617E-1,2.938457727E0,8.846941974E0
8.988851040E-1,-8.198534012E0,7.365484238E-1,2.797783613E0,8.694024193E0
9.037978120E-1,-8.147542953E0,8.164520264E-1,2.616483927E0,8.596222323E0
9.087105730E-1,-8.063125610E0,9.245748520E-1,2.361333847E0,8.452498495E0
9.136233330E-1,-7.937966824E0,1.060727119E0,2.201692581E0,8.305655274E0
9.185360930E-1,-7.848202229E0,1.181890488E0,2.103627682E0,8.210748612E0
9.234488020E-1,-7.760209560E0,1.269083977E0,2.035947323E0,8.122592447E0
9.283615620E-1,-7.678420544E0,1.310481071E0,1.994113922E0,8.040646306E0
9.332743230E-1,-7.557333469E0,1.313391685E0,1.975911140E0,7.921017089E0
9.381870830E-1,-7.447390556E0,1.294672012E0,2.017221212E0,7.823617011E0
9.430998430E-1,-7.299130440E0,1.275865555E0,2.096704006E0,7.700734107E0
9.480125520E-1,-7.156373978E0,1.271282196E0,2.119271517E0,7.571073814E0
9.529253120E-1,-7.019903183E0,1.295135498E0,2.042823553E0,7.424927254E0
9.578380730E-1,-6.857127190E0,1.271116257E0,1.913380623E0,7.231663380E0
9.627508330E-1,-6.582868576E0,1.225669861E0,1.745726109E0,6.919825499E0
9.676635410E-1,-6.250312805E0,1.156598091E0,1.546991587E0,6.541965475E0
9.725763020E-1,-5.895474911E0,1.149795532E0,1.405265570E0,6.168745862E0
9.774890620E-1,-5.542215347E0,1.174015045E0,1.281939268E0,5.808427547E0
9.824018230E-1,-5.283126831E0,1.190996170E0,1.136301279E0,5.533631862E0
9.873145830E-1,-5.017055511E0,1.186395645E0,1.001946449E0,5.251883216E0
9.922272910E-1,-4.671864033E0,1.088826180E0,8.858563900E-1,4.878175636E0
9.971400520E-1,-4.397465229E0,9.130229950E-1,7.711551189E-1,4.556971763E0
1.002052812E0,-4.126123905E0,7.761020660E-1,6.288473606E-1,4.245312933E0
1.006965573E0,-3.830584049E0,6.802425385E-1,4.751634598E-1,3.919423986E0
1.011878281E0,-3.548066378E0,6.634130478E-1,3.378503323E-1,3.625332363E0
1.016791041E0,-3.351453304E0,6.895141602E-1,2.232952118E-1,3.428925456E0
1.021703802E0,-3.251800537E0,7.916927338E-1,1.191322803E-1,3.348906780E0
1.026616562E0,-3.126963139E0,9.243068695E-1,2.758812904E-2,3.260828539E0
1.031529323E0,-3.034215927E0,1.044308662E0,1.540398598E-2,3.208938167E0
1.036442083E0,-3.021394253E0,1.161265373E0,9.207010269E-2,3.238184275E0
1.041354791E0,-3.022118568E0,1.234704018E0,2.051503658E-1,3.271052021E0
1.046267552E0,-3.037002563E0,1.295801163E0,3.287277222E-1,3.318214450E0
1.051180312E0,-3.050201178E0,1.330330849E0,5.084972382E-1,3.366315023E0
1.056093073E0,-3.079352856E0,1.390878677E0,6.873583794E-1,3.448103688E0
1.061005833E0,-3.172988653E0,1.482064247E0,8.468308449E-1,3.602984028E0
1.065918541E0,-3.283836603E0,1.587031364E0,9.874987602E-1,3.778545380E0
1.070831302E0,-3.500579357E0,1.722378731E0,1.100246906E0,4.053540130E0
1.075744062E0,-3.668079138E0,1.883180618E0,1.202057123E0,4.294894077E0
1.080656823E0,-3.770006895E0,2.112122536E0,1.362498999E0,4.531050333E0
1.085569531E0,-3.825821161E0,2.272984505E0,1.543595076E0,4.710207201E0
1.090482291E0,-3.921527863E0,2.401739120E0,1.647982836E0,4.884933879E0
1.095395052E0,-3.997273207E0,2.498497963E0,1.680947065E0,5.004624681E0
1.100307812E0,-3.990743637E0,2.575299263E0,1.592733383E0,5.009491062E0
1.105220520E0,-4.004154682E0,2.632246017E0,1.493251324E0,5.019140696E0
1.110133281E0,-4.015433311E0,2.695696831E0,1.355916977E0,5.022847492E0
1.115046041E0,-3.976327896E0,2.789562225E0,1.120642662E0,4.984845125E0
1.119958802E0,-3.841062069E0,2.949523926E0,8.778450489E-1,4.921794504E0
1.124871562E0,-3.733722448E0,3.127732277E0,7.127587795E-1,4.922541782E0
1.129784323E0,-3.632485867E0,3.343288422E0,6.434916258E-1,4.978615522E0
1.134697031E0,-3.465837717E0,3.565140724E0,5.929131508E-1,5.007375108E0
1.139609791E0,-3.248408318E0,3.833858490E0,6.154189110E-1,5.062545600E0
1.144522552E0,-3.025654316E0,4.027694702E0,6.939457655E-1,5.085122356E0
1.149435312E0,-2.807043552E0,4.161313057E0,8.495724201E-1,5.090952088E0
1.154348073E0,-2.563431501E0,4.275459290E0,1.065287232E0,5.097604348E0
1.159260781E0,-2.435160637E0,4.494079590E0,1.288726568E0,5.271392117E0
1.164173541E0,-2.347291708E0,4.759392738E0,1.568016529E0,5.533558840E0
1.169086302E0,-2.287499189E0,5.023348808E0,1.851419926E0,5.821893294E0
1.173999062E0,-2.355975389E0,5.347755432E0,2.099539042E0,6.209442196E0
1.178911823E0,-2.531510592E0,5.710740089E0,2.249464035E0,6.639366437E0
1.183824531E0,-2.760145187E0,6.014291763E0,2.381518841E0,7.032904013E0
1.188737291E0,-2.993405104E0,6.244359016E0,2.518023968E0,7.368374199E0
1.193650052E0,-3.108765841E0,6.382242203E0,2.554360867E0,7.544680247E0
1.198562812E0,-3.110584736E0,6.464232445E0,2.519375324E0,7.603242106E0
1.203475520E0,-3.045798063E0,6.552750587E0,2.488955498E0,7.642664821E0
1.208388281E0,-2.772313356E0,6.597882271E0,2.488594294E0,7.576996329E0
1.213301041E0,-2.426939964E0,6.571390152E0,2.479112148E0,7.430962465E0
1.218213802E0,-2.002300501E0,6.504654884E0,2.469508648E0,7.240042501E0
1.223126562E0,-1.492604136E0,6.324000359E0,2.449723959E0,6.944205867E0
1.228039270E0,-9.509756565E-1,6.063234329E0,2.457810402E0,6.611202402E0
1.232952031E0,-4.706018269E-1,5.856112480E0,2.531877518E0,6.397337198E0
1.237864791E0,-6.350031495E-2,5.666548729E0,2.645605087E0,6.254041339E0
1.242777552E0,1.741626263E-1,5.480085373E0,2.765709400E0,6.140913352E0
1.247690312E0,3.010471761E-1,5.337166786E0,2.875936747E0,6.070172228E0
1.252603020E0,3.511667848E-1,5.135100365E0,2.888185263E0,5.902049473E0
1.257515781E0,3.749530613E-1,4.962379456E0,2.826751709E0,5.723314152E0
1.262428541E0,3.915292323E-1,4.759366989E0,2.746422052E0,5.508874964E0
1.267341302E0,3.643721044E-1,4.645547867E0,2.692077160E0,5.381557530E0
1.272254062E0,3.588105142E-1,4.665999413E0,2.703926086E0,5.404767505E0
1.277166770E0,2.151567340E-1,4.779763222E0,2.705442429E0,5.496530507E0
1.282079531E0,5.319702625E-2,4.762395859E0,2.656544685E0,5.453482732E0
1.286992291E0,-9.542971849E-3,4.635930061E0,2.622238636E0,5.326168798E0
1.291905052E0,5.616819859E-2,4.350773811E0,2.602681398E0,5.070141821E0
1.296817812E0,2.181678414E-1,3.995851517E0,2.602367163E0,4.773545999E0
1.301730573E0,3.758009076E-1,3.609658241E0,2.618398666E0,4.475139162E0
1.306643281E0,5.438224077E-1,3.268687248E0,2.599969149E0,4.211875914E0
1.311556041E0,8.261500597E-1,2.944178581E0,2.500972033E0,3.950388911E0
1.316468802E0,1.174316049E0,2.683732986E0,2.402092218E0,3.788335776E0
1.321381562E0,1.590148091E0,2.420279503E0,2.393157959E0,3.756797684E0
1.326294270E0,2.001344442E0,2.113195419E0,2.478023529E0,3.822509002E0
1.331207031E0,2.366536617E0,1.803074837E0,2.584563971E0,3.941008164E0
1.336119791E0,2.684687853E0,1.423032761E0,2.703211069E0,4.066930192E0
1.341032552E0,2.894690275E0,9.923133850E-1,2.919877768E0,4.229610363E0
1.345945312E0,2.985440493E0,5.110273361E-1,3.205739021E0,4.410302319E0
1.350858073E0,3.040580511E0,9.618568420E-2,3.470315456E0,4.614918298E0
1.355770781E0,3.171726227E0,-2.739286423E-1,3.621337891E0,4.821718809E0
1.360683541E0,3.361055136E0,-6.853075027E-1,3.622239590E0,4.988682957E0
1.365596302E0,3.533670425E0,-1.123418808E0,3.422177553E0,5.045809717E0
1.370509062E0,3.698574066E0,-1.719263077E0,3.053715467E0,5.095144140E0
1.375421823E0,3.838799477E0,-2.350527763E0,2.606104374E0,5.201263519E0
