"Time (s)","Linear Acceleration x (m/s^2)","Linear Acceleration y (m/s^2)","Linear Acceleration z (m/s^2)","Absolute acceleration (m/s^2)"
5.398266000E-2,0.000000000E0,0.000000000E0,0.000000000E0,0.000000000E0
5.889479600E-2,-2.346098423E-3,8.313179016E-3,1.171359420E-2,1.455408576E-2
6.380693100E-2,-2.054151893E-2,1.184654236E-2,1.384118199E-2,2.745674570E-2
6.871906600E-2,-4.957251251E-2,1.421165466E-2,1.334941387E-2,5.326924042E-2
7.363120200E-2,-8.810657263E-2,1.516914368E-2,9.929239750E-3,8.995254784E-2
7.854333700E-2,-1.406916976E-1,1.862907410E-2,9.442090988E-3,1.422334323E-1
8.345547300E-2,-1.928262562E-1,2.010726929E-2,1.354923844E-2,1.943446660E-1
8.836760800E-2,-2.456124276E-1,2.812767029E-2,1.555946469E-2,2.477069385E-1
9.327974300E-2,-3.019825220E-1,3.784275055E-2,1.359641552E-2,3.046479606E-1
9.819182700E-2,-3.383563161E-1,3.844833374E-2,5.750238895E-3,3.405823487E-1
1.031039620E-1,-3.542729616E-1,2.415180206E-2,7.390916348E-3,3.551721646E-1
1.080160980E-1,-3.487511873E-1,2.469062805E-3,1.539278030E-2,3.490994480E-1
1.129282330E-1,-3.268333375E-1,-1.090526581E-2,2.281975746E-2,3.278104585E-1
1.178403680E-1,-2.908194363E-1,-1.672458649E-2,3.208824992E-2,2.930619595E-1
1.227525040E-1,-2.472998649E-1,-1.553440094E-2,4.764586687E-2,2.523265135E-1
1.276646390E-1,-2.070534974E-1,-3.256797791E-3,6.705141068E-2,2.176640742E-1
1.325767750E-1,-1.555329114E-1,1.543045044E-3,9.248310328E-2,1.809585365E-1
1.374889100E-1,-9.732298553E-2,-6.752014160E-4,1.101295948E-1,1.469719261E-1
1.424010460E-1,-4.157038033E-2,-9.552955627E-3,1.180090010E-1,1.254809938E-1
1.473131290E-1,-4.008844495E-3,-2.935981750E-2,1.188069582E-1,1.224465722E-1
1.522252640E-1,2.755625546E-2,-4.142665863E-2,1.080260575E-1,1.189333610E-1
1.571374000E-1,3.962635994E-2,-6.215476990E-2,9.073418379E-2,1.169023350E-1
1.620495350E-1,3.065934777E-2,-8.208465576E-2,6.010946631E-2,1.062592785E-1
1.669616710E-1,8.082717657E-3,-8.985137939E-2,1.893511415E-2,9.217992868E-2
1.718738060E-1,-2.086764574E-2,-9.974575043E-2,-2.572256327E-2,1.051014920E-1
1.767859410E-1,-5.137470365E-2,-1.024913788E-1,-6.701976061E-2,1.327986868E-1
1.816980770E-1,-7.416310906E-2,-1.052703857E-1,-1.004485190E-1,1.633154182E-1
1.866102120E-1,-8.476042747E-2,-1.057729721E-1,-1.353429854E-1,1.915462748E-1
1.915223480E-1,-9.735020995E-2,-1.110162735E-1,-1.621955931E-1,2.193378371E-1
1.964344830E-1,-1.070604324E-1,-1.115913391E-1,-1.788112670E-1,2.364064982E-1
2.013465660E-1,-1.232251227E-1,-1.192216873E-1,-1.855801195E-1,2.526622693E-1
2.062587540E-1,-1.270820498E-1,-1.244144440E-1,-1.851449758E-1,2.567244891E-1
2.111708370E-1,-1.213297546E-1,-1.272354126E-1,-1.825999618E-1,2.534807796E-1
2.160829730E-1,-1.064522266E-1,-1.300649643E-1,-1.829933226E-1,2.484663511E-1
2.209951080E-1,-8.736664057E-2,-1.259174347E-1,-1.817850471E-1,2.377686556E-1
2.259072430E-1,-6.429502368E-2,-1.033315659E-1,-1.838351190E-1,2.204690762E-1
2.308193790E-1,-3.945884109E-2,-6.509780884E-2,-1.702432632E-1,1.864872476E-1
2.357315140E-1,-1.268687844E-2,-1.389884949E-2,-1.411633492E-1,1.424121696E-1
2.406436500E-1,1.601845026E-2,4.299545288E-2,-8.960735798E-2,1.006711395E-1
2.455557850E-1,4.665347934E-2,1.031627655E-1,-2.267238498E-2,1.154692182E-1
2.504679210E-1,8.158716559E-2,1.479005814E-1,4.571247101E-2,1.749876497E-1
2.553800560E-1,1.228389889E-1,1.752662659E-1,1.135009825E-1,2.422605089E-1
2.602921910E-1,1.560891867E-1,1.880121231E-1,1.761965156E-1,3.012600284E-1
2.652043270E-1,1.672054827E-1,1.771030426E-1,2.387769222E-1,3.410829514E-1
2.701164620E-1,1.752259433E-1,1.500682831E-1,2.941831648E-1,3.738560622E-1
2.750285460E-1,1.943618655E-1,1.119136810E-1,3.261733353E-1,3.958411947E-1
2.799406810E-1,2.386678457E-1,6.516933441E-2,3.613429666E-1,4.379247906E-1
2.848528160E-1,2.889178395E-1,3.342437744E-2,3.876741529E-1,4.846462171E-1
2.897649520E-1,3.310160935E-1,1.169681549E-2,3.787844181E-1,5.031760180E-1
2.946770870E-1,3.674037755E-1,-7.244110107E-3,3.323799372E-1,4.954941311E-1
2.995892230E-1,3.957878053E-1,-2.579307556E-2,2.768982053E-1,4.837208758E-1
3.045013580E-1,4.138446450E-1,-4.396533966E-2,2.239779830E-1,4.726166292E-1
3.094134930E-1,4.168566167E-1,-7.588958740E-2,1.783707142E-1,4.597225033E-1
3.143256290E-1,4.190348387E-1,-1.072540283E-1,1.425718665E-1,4.554342540E-1
3.192377640E-1,4.132148325E-1,-1.451568604E-1,1.142634153E-1,4.526291418E-1
3.241499000E-1,4.182686806E-1,-1.848163605E-1,8.881056309E-2,4.658251736E-1
3.290620350E-1,4.315022230E-1,-2.238826752E-1,6.152385473E-2,4.900028627E-1
3.339741710E-1,4.482003748E-1,-2.600269318E-1,3.477329016E-2,5.193329981E-1
3.388863060E-1,4.778756499E-1,-2.862567902E-1,8.659243584E-3,5.571203364E-1
3.437984410E-1,5.345624089E-1,-3.050994873E-1,-1.916152239E-2,6.158001544E-1
3.487105770E-1,6.203899384E-1,-3.190279007E-1,-5.579096079E-2,6.998393447E-1
3.536227120E-1,7.328516245E-1,-3.398838043E-1,-9.414210916E-2,8.132989860E-1
3.585348480E-1,8.645928502E-1,-3.651952744E-1,-1.367733479E-1,9.484699962E-1
3.634469830E-1,1.008513808E0,-3.972330093E-1,-1.862526834E-1,1.099810996E0
3.683591180E-1,1.155099988E0,-4.358892441E-1,-2.357378900E-1,1.256911997E0
3.732712540E-1,1.295063376E0,-4.739856720E-1,-2.807871997E-1,1.407370960E0
3.781833890E-1,1.416853905E0,-4.997501373E-1,-3.355964422E-1,1.539431765E0
3.830955250E-1,1.516071081E0,-5.204582214E-1,-3.904554844E-1,1.649789007E0
3.880076600E-1,1.593168139E0,-5.243902206E-1,-4.430691600E-1,1.734785319E0
3.929197430E-1,1.657920003E0,-5.235900879E-1,-4.910317659E-1,1.806642608E0
3.978318790E-1,1.701075315E0,-5.204868317E-1,-5.366647243E-1,1.858110007E0
4.027440140E-1,1.729764104E0,-5.127573013E-1,-5.775378942E-1,1.894347889E0
4.076562020E-1,1.743796587E0,-5.028142929E-1,-6.114220619E-1,1.915068063E0
4.125682850E-1,1.757087111E0,-5.048370361E-1,-6.432538629E-1,1.938037947E0
4.174804210E-1,1.771684647E0,-5.115633011E-1,-6.802067161E-1,1.965513845E0
4.223925560E-1,1.792137027E0,-5.158224106E-1,-7.294130325E-1,2.002466293E0
4.273046910E-1,1.820568085E0,-5.247144699E-1,-7.908520699E-1,2.053105069E0
4.322168270E-1,1.856942654E0,-5.239753723E-1,-8.598622084E-1,2.112379991E0
4.371289620E-1,1.908582926E0,-5.137214661E-1,-9.339270592E-1,2.186050841E0
4.420410980E-1,1.987453222E0,-4.917001724E-1,-1.003525019E0,2.280088120E0
4.469532330E-1,2.081832409E0,-4.604282379E-1,-1.061489820E0,2.381760059E0
4.518653680E-1,2.186975956E0,-4.200162888E-1,-1.110181570E0,2.488328884E0
4.567775040E-1,2.300282478E0,-3.705596924E-1,-1.144812584E0,2.595998809E0
4.616896390E-1,2.414625645E0,-3.074216843E-1,-1.186744571E0,2.708004389E0
4.666017750E-1,2.511214733E0,-2.213106155E-1,-1.223612666E0,2.802214442E0
4.715139100E-1,2.588049650E0,-1.267023087E-1,-1.250249386E0,2.877008515E0
4.764260460E-1,2.650265217E0,-2.843666077E-2,-1.268798590E0,2.938462902E0
4.813381810E-1,2.691132784E0,6.161022186E-2,-1.281553745E0,2.981337197E0
4.862503160E-1,2.701551914E0,1.364402771E-1,-1.307565808E0,3.004451204E0
4.911624520E-1,2.681810856E0,2.009763718E-1,-1.337302208E0,3.003477678E0
4.960745870E-1,2.641941071E0,2.458667755E-1,-1.392295599E0,2.996462936E0
5.009867230E-1,2.596503496E0,2.713527679E-1,-1.468216538E0,2.995183222E0
5.058988580E-1,2.543457508E0,2.823991776E-1,-1.570332766E0,3.002477375E0
5.108109930E-1,2.487992287E0,2.957344055E-1,-1.694403172E0,3.024659744E0
5.157231290E-1,2.432809353E0,3.137006760E-1,-1.812497139E0,3.049936940E0
5.206352640E-1,2.375702381E0,3.480939865E-1,-1.918040276E0,3.073110757E0
5.255474520E-1,2.323736668E0,4.129867554E-1,-2.018669605E0,3.105694308E0
5.304595350E-1,2.269518852E0,5.033531189E-1,-2.083636999E0,3.121798092E0
5.353717230E-1,2.205608368E0,6.047410965E-1,-2.096168280E0,3.102312287E0
5.402838060E-1,2.121983528E0,7.123365402E-1,-2.039326429E0,3.028050483E0
5.451959930E-1,2.011082649E0,8.189783096E-1,-1.912402630E0,2.893520816E0
5.501081290E-1,1.874894857E0,9.293956757E-1,-1.728496313E0,2.714167746E0
5.550202640E-1,1.710566998E0,1.038802147E0,-1.519639969E0,2.512857932E0
5.599324000E-1,1.515295982E0,1.140098572E0,-1.303666472E0,2.301193807E0
5.648445350E-1,1.283914328E0,1.219170570E0,-1.103351235E0,2.086191944E0
5.697566710E-1,1.023488760E0,1.278622627E0,-9.394041896E-1,1.888090383E0
5.746688060E-1,7.602409124E-1,1.323420525E0,-8.234198093E-1,1.734193851E0
5.795809410E-1,5.157374144E-1,1.358473778E0,-7.649855018E-1,1.642144605E0
5.844930770E-1,2.854022980E-1,1.391025543E0,-7.787686586E-1,1.619533006E0
5.894052120E-1,7.896101475E-2,1.418785095E0,-8.559352160E-1,1.658858367E0
5.943173480E-1,-1.059973240E-1,1.437138557E0,-9.808284044E-1,1.743165805E0
5.992294830E-1,-2.548562288E-1,1.450941086E0,-1.133217931E0,1.858592104E0
6.041416180E-1,-3.843288422E-1,1.462651253E0,-1.283319712E0,1.983423008E0
6.090537540E-1,-4.918879271E-1,1.465161324E0,-1.422549129E0,2.100546943E0
6.139658890E-1,-5.725395679E-1,1.449016571E0,-1.546925545E0,2.195547590E0
6.188780250E-1,-6.188976765E-1,1.409564972E0,-1.640538216E0,2.249727401E0
6.237901600E-1,-6.356284618E-1,1.368299484E0,-1.687253594E0,2.263424775E0
6.287022960E-1,-6.153206825E-1,1.346486092E0,-1.673100710E0,2.234034539E0
6.336144310E-1,-5.673906803E-1,1.374718666E0,-1.595701098E0,2.181294476E0
6.385265660E-1,-5.088809729E-1,1.452558517E0,-1.442748666E0,2.109599442E0
6.434387020E-1,-4.472298622E-1,1.567695618E0,-1.246671557E0,2.052285085E0
6.483508370E-1,-4.017709494E-1,1.693698883E0,-1.013507843E0,2.014257667E0
6.532629730E-1,-3.725241423E-1,1.830431938E0,-7.443216443E-1,2.010788409E0
6.581751080E-1,-3.521484137E-1,1.977738380E0,-4.736133814E-1,2.063920357E0
6.630872430E-1,-3.477065563E-1,2.125985146E0,-2.192141116E-1,2.165356210E0
6.679994310E-1,-3.686530590E-1,2.260911942E0,1.258966327E-2,2.290804746E0
6.729115660E-1,-4.195390940E-1,2.377874374E0,2.104357183E-1,2.423753862E0
6.778237020E-1,-5.098050833E-1,2.469940186E0,3.581108749E-1,2.547302326E0
6.827358370E-1,-6.440471411E-1,2.520750999E0,4.388878942E-1,2.638485343E0
6.876479730E-1,-7.957567573E-1,2.502182961E0,4.618357122E-1,2.665978359E0
6.925601080E-1,-9.596078396E-1,2.393397331E0,4.044296741E-1,2.610126693E0
6.974722430E-1,-1.108522892E0,2.218766212E0,2.820626199E-1,2.496258366E0
7.023843790E-1,-1.232280254E0,2.002455711E0,1.432120204E-1,2.355600387E0
7.072965140E-1,-1.342921019E0,1.768572807E0,9.648144245E-3,2.220671008E0
7.122086500E-1,-1.479189873E0,1.536382675E0,-1.423094422E-1,2.137457925E0
7.171207850E-1,-1.615056396E0,1.334429741E0,-3.046903312E-1,2.117060720E0
7.220329210E-1,-1.750332832E0,1.160059929E0,-4.331872165E-1,2.144074445E0
7.269450560E-1,-1.899007559E0,1.027253151E0,-5.208618641E-1,2.220985328E0
7.318571910E-1,-2.054147243E0,9.262218475E-1,-5.436885357E-1,2.317974338E0
7.367693790E-1,-2.216460228E0,8.615856171E-1,-4.723542333E-1,2.424488449E0
7.416815140E-1,-2.384512424E0,8.427066803E-1,-2.911614776E-1,2.545747249E0
7.465936500E-1,-2.549883842E0,8.741254807E-1,-1.480644941E-2,2.695593107E0
7.515057850E-1,-2.732805252E0,9.460611343E-1,3.401374817E-1,2.911863617E0
7.564179210E-1,-2.939228535E0,1.041676521E0,7.356006503E-1,3.203944861E0
7.613300560E-1,-3.187219620E0,1.120515823E0,1.133157253E0,3.563421106E0
7.662421910E-1,-3.477667809E0,1.137602806E0,1.498597383E0,3.953998944E0
7.711543270E-1,-3.797076225E0,1.074445724E0,1.818497777E0,4.345015033E0
7.760664620E-1,-4.127129555E0,9.364871979E-1,2.078352928E0,4.714844380E0
7.809785980E-1,-4.427696705E0,7.386255264E-1,2.234260082E0,5.014178287E0
7.858907330E-1,-4.674335480E0,5.002660751E-1,2.244329453E0,5.209289108E0
7.908029210E-1,-4.858555317E0,2.548561096E-1,2.120868444E0,5.307409383E0
7.957150560E-1,-4.978875637E0,2.367210388E-2,1.911803961E0,5.333362669E0
8.006271910E-1,-5.060723305E0,-1.887273788E-1,1.643631339E0,5.324289846E0
8.055393270E-1,-5.120579720E0,-3.801107407E-1,1.323794007E0,5.302570265E0
8.104514620E-1,-5.144024372E0,-5.506334305E-1,9.788450003E-1,5.265199089E0
8.153635980E-1,-5.088177681E0,-7.004575729E-1,6.761400700E-1,5.180478580E0
8.202757330E-1,-4.950974464E0,-8.059444427E-1,4.718116224E-1,5.038283517E0
8.251878680E-1,-4.761065483E0,-8.412542343E-1,3.753593266E-1,4.849365716E0
8.301000040E-1,-4.517918587E0,-8.093309402E-1,4.234933853E-1,4.609333094E0
8.350121910E-1,-4.244257927E0,-7.132444382E-1,6.689900756E-1,4.355455280E0
8.399243270E-1,-3.924253464E0,-5.347652435E-1,1.094023228E0,4.108847276E0
8.448364620E-1,-3.577643156E0,-2.796869278E-1,1.617008567E0,3.936047768E0
8.497485980E-1,-3.245383024E0,-2.756309509E-2,2.162805080E0,3.900127756E0
8.546607330E-1,-2.963922024E0,1.521883011E-1,2.671249866E0,3.992940131E0
8.595728680E-1,-2.754107952E0,2.599258423E-1,3.053851366E0,4.120519412E0
8.644850040E-1,-2.609007835E0,3.319778442E-1,3.265642166E0,4.193035885E0
8.693971390E-1,-2.531476974E0,3.688783646E-1,3.253582716E0,4.138870306E0
8.743093270E-1,-2.512061596E0,3.710937500E-1,3.052937984E0,3.970968946E0
8.792214620E-1,-2.536627293E0,3.366785049E-1,2.730626822E0,3.742212350E0
8.841335980E-1,-2.574941158E0,2.923088074E-1,2.384891033E0,3.521856279E0
8.890457330E-1,-2.614452362E0,2.360706329E-1,2.099859953E0,3.361621977E0
8.939578680E-1,-2.657030582E0,1.946029663E-1,1.881301761E0,3.261438049E0
8.988700040E-1,-2.691966057E0,1.823225021E-1,1.741286755E0,3.211230653E0
9.037821390E-1,-2.695406437E0,1.966104507E-1,1.724495888E0,3.205894196E0
9.086942750E-1,-2.640511513E0,2.109069824E-1,1.837847948E0,3.224045267E0
9.136064620E-1,-2.540815830E0,2.106513977E-1,2.033391953E0,3.261104403E0
9.185185980E-1,-2.458404303E0,1.934509277E-1,2.279258966E0,3.358004826E0
9.234307330E-1,-2.379033089E0,1.522331238E-1,2.564149380E0,3.501119164E0
9.283428680E-1,-2.280568123E0,8.465385437E-2,2.825998306E0,3.632412926E0
9.332550040E-1,-2.178521872E0,-6.929397583E-3,3.003136635E0,3.710099083E0
9.381671390E-1,-2.103077412E0,-1.058006287E-1,3.112681150E0,3.758046343E0
9.430792750E-1,-2.075472116E0,-1.832532883E-1,3.185232162E0,3.806162136E0
9.479914620E-1,-2.115123034E0,-2.035093307E-1,3.220376015E0,3.858235759E0
9.529035980E-1,-2.210791588E0,-1.928615570E-1,3.260865211E0,3.944367751E0
9.578157330E-1,-2.348970890E0,-2.013034821E-1,3.318482637E0,4.070689665E0
9.627278680E-1,-2.511672974E0,-2.333345413E-1,3.395724535E0,4.230117168E0
9.676400040E-1,-2.667105675E0,-2.886600494E-1,3.468712330E0,4.385059011E0
9.725521390E-1,-2.795379639E0,-3.765134811E-1,3.513131142E0,4.505330193E0
9.774642750E-1,-2.899798393E0,-4.490098953E-1,3.530870914E0,4.591022764E0
9.823764620E-1,-2.981386185E0,-4.799442291E-1,3.549951315E0,4.660596999E0
9.872885980E-1,-3.052885056E0,-5.051555634E-1,3.550261736E0,4.709527333E0
9.922007330E-1,-3.111541271E0,-5.199117661E-1,3.524034023E0,4.729779395E0
9.971128680E-1,-3.163401127E0,-5.005617142E-1,3.504810333E0,4.747774657E0
1.002025004E0,-3.190166712E0,-4.284496307E-1,3.526911736E0,4.774917709E0
1.006937139E0,-3.183214188E0,-3.326663971E-1,3.603372097E0,4.819523832E0
1.011849327E0,-3.134266853E0,-2.588129044E-1,3.723445892E0,4.873875474E0
1.016761462E0,-3.040784597E0,-2.164297104E-1,3.911720037E0,4.959311085E0
1.021673598E0,-2.943228960E0,-2.030763626E-1,4.130549431E0,5.075950681E0
1.026585733E0,-2.858226776E0,-1.830110550E-1,4.328434944E0,5.190212174E0
1.031497868E0,-2.783481359E0,-1.516084671E-1,4.489671707E0,5.284685955E0
1.036410056E0,-2.732893467E0,-1.137390137E-1,4.590964317E0,5.344024385E0
1.041322191E0,-2.710692406E0,-8.370971680E-2,4.613487244E0,5.351553530E0
1.046234327E0,-2.694385052E0,-6.384086609E-2,4.557605743E0,5.294861337E0
1.051146462E0,-2.647891045E0,-6.581687927E-2,4.449071884E0,5.177827679E0
1.056058598E0,-2.553311825E0,-1.296577454E-1,4.319325924E0,5.019241859E0
1.060970733E0,-2.432106018E0,-2.879457474E-1,4.170138836E0,4.836125551E0
1.065882921E0,-2.296280384E0,-5.207357407E-1,3.998351336E0,4.640138222E0
1.070795056E0,-2.170828104E0,-7.535743713E-1,3.844862461E0,4.479211575E0
1.075707191E0,-2.067122459E0,-9.102458954E-1,3.776321173E0,4.400243681E0
1.080619327E0,-1.969404697E0,-9.794826508E-1,3.825399399E0,4.412666052E0
1.085531462E0,-1.883535981E0,-9.883241653E-1,3.978029251E0,4.511009773E0
1.090443650E0,-1.803877234E0,-9.732589722E-1,4.196548462E0,4.670355993E0
1.095355785E0,-1.754369736E0,-9.419565201E-1,4.433268070E0,4.859934263E0
1.100267921E0,-1.757478356E0,-8.947963715E-1,4.630001545E0,5.032524717E0
1.105180056E0,-1.817054510E0,-8.248281479E-1,4.746385574E0,5.148806132E0
1.110092191E0,-1.944799662E0,-7.297859192E-1,4.760122776E0,5.193611658E0
1.115004379E0,-2.130048752E0,-6.097221375E-1,4.677322388E0,5.175539922E0
1.119916514E0,-2.313186646E0,-4.956331253E-1,4.528238297E0,5.108955541E0
1.124828650E0,-2.455556393E0,-4.040422440E-1,4.374203205E0,5.032560085E0
1.129740785E0,-2.544922590E0,-3.347711563E-1,4.248131752E0,4.963398644E0
1.134652921E0,-2.576193333E0,-2.804861069E-1,4.168488503E0,4.908333825E0
1.139565108E0,-2.534766436E0,-2.648992538E-1,4.132500172E0,4.855179725E0
1.144477243E0,-2.415364265E0,-2.972984314E-1,4.144640446E0,4.806289142E0
1.149389379E0,-2.236555338E0,-3.702230453E-1,4.183036804E0,4.757840034E0
1.154301514E0,-1.997752547E0,-4.476470947E-1,4.235527992E0,4.704370365E0
1.159213702E0,-1.700720191E0,-5.104131699E-1,4.311654091E0,4.662974563E0
1.164125837E0,-1.363800526E0,-5.561113358E-1,4.394689560E0,4.634922655E0
1.169037973E0,-1.015023708E0,-5.990791321E-1,4.489654064E0,4.641784415E0
1.173950108E0,-6.943900585E-1,-6.298055649E-1,4.592234612E0,4.686944776E0
1.178862243E0,-4.275180101E-1,-6.507816315E-1,4.662681580E0,4.727249506E0
1.183774431E0,-2.309299707E-1,-6.859149933E-1,4.696614265E0,4.752051514E0
1.188686566E0,-1.071690321E-1,-7.541790009E-1,4.724679947E0,4.785694492E0
1.193598702E0,-4.961287975E-2,-8.672790527E-1,4.738722324E0,4.817688622E0
1.198510837E0,-3.697812557E-2,-1.010631561E0,4.716375828E0,4.823582122E0
1.203423025E0,-5.524981022E-2,-1.153074265E0,4.642757416E0,4.784122618E0
1.208335160E0,-6.634593010E-2,-1.251674652E0,4.503375530E0,4.674556918E0
1.213247296E0,-2.035772800E-2,-1.299396515E0,4.321677208E0,4.512841636E0
1.218159431E0,1.323778629E-1,-1.334523201E0,4.154296398E0,4.365392839E0
1.223071618E0,3.962172866E-1,-1.395148277E0,4.043295860E0,4.295540509E0
1.227983754E0,7.571513057E-1,-1.485828400E0,4.002654076E0,4.336150802E0
1.232895889E0,1.209282279E0,-1.582491875E0,4.009074211E0,4.476529928E0
1.237808025E0,1.716304183E0,-1.656406403E0,4.059189796E0,4.708121071E0
1.242720212E0,2.217875004E0,-1.702833652E0,4.144920349E0,4.999897667E0
1.247632348E0,2.653060436E0,-1.726654053E0,4.241302013E0,5.292325261E0
1.252544483E0,2.976687431E0,-1.742322922E0,4.353780746E0,5.554436426E0
1.257456618E0,3.144510269E0,-1.757224560E0,4.463216782E0,5.735511052E0
1.262368806E0,3.130573750E0,-1.781225204E0,4.533471107E0,5.790130872E0
1.267280941E0,2.927428007E0,-1.800477982E0,4.538166523E0,5.692671700E0
1.272193077E0,2.555962563E0,-1.810847282E0,4.505863667E0,5.487706250E0
1.277105212E0,2.032164574E0,-1.822592735E0,4.472157478E0,5.239439822E0
1.282017400E0,1.415574312E0,-1.776844025E0,4.366167068E0,4.921833011E0
1.286929535E0,8.376085758E-1,-1.622011185E0,4.136343002E0,4.521265513E0
1.291841671E0,4.708138704E-1,-1.415960312E0,3.882653236E0,4.159519859E0
1.296753806E0,4.102421999E-1,-1.225419044E0,3.706722736E0,3.925524671E0
1.301665993E0,6.882301569E-1,-1.095038414E0,3.672165155E0,3.893271992E0
1.306578129E0,1.293530583E0,-1.035722733E0,3.750420094E0,4.100194365E0
1.311490264E0,2.158548355E0,-1.013045311E0,3.928405523E0,4.595428354E0
1.316402400E0,3.168779850E0,-1.016607285E0,4.160133362E0,5.327416419E0
1.321314587E0,4.204439163E0,-1.050481796E0,4.406234264E0,6.180268689E0
1.326226723E0,5.166167736E0,-1.125962257E0,4.659395218E0,7.047484933E0
1.331138858E0,5.974584103E0,-1.271086693E0,4.865394592E0,7.809185689E0
1.336051046E0,6.582855225E0,-1.480499268E0,4.950570107E0,8.368632228E0
1.340963181E0,6.945468426E0,-1.699010372E0,4.844252110E0,8.636720813E0
1.345875316E0,7.034542084E0,-1.862407207E0,4.498034000E0,8.554861355E0
1.350787452E0,6.839766979E0,-1.942712307E0,3.956393242E0,8.136927609E0
1.355699639E0,6.407084942E0,-1.931335449E0,3.311419010E0,7.466343813E0
1.360611775E0,5.846454620E0,-1.824621201E0,2.657623291E0,6.676319024E0
1.365523910E0,5.291790009E0,-1.669032097E0,2.082630634E0,5.926724221E0
